# dimensionless total [l(l+1)/2pi] C_l's
# for l=2 to 3100, i.e. number of multipoles equal to 3099
#
# -> if you prefer output in CAMB/HealPix/LensPix units/order, set 'format' to 'camb' in input file
# -> if you don't want to see such a header, set 'headers' to 'no' in input file
# -> for CMB lensing (phi), these are C_l^phi-phi for the lensing potential.
#    Remember the conversion factors:
#    C_l^dd (deflection) = l(l+1) C_l^phi-phi
#    C_l^gg (shear/convergence) = 1/4 (l(l+1))^2 C_l^phi-phi
#
# 1:l     2:TT                     3:EE                     4:TE                     5:BB                     6:phiphi                 7:TPhi                   8:Ephi               
    2       1.379998650931e-10       4.485801696275e-15       3.656262825776e-13       0.000000000000e+00       8.049619350539e-09       4.500362030644e-10      -1.913399484822e-12 
    3       1.305820016609e-10       5.981034614511e-15       4.169830122943e-13       0.000000000000e+00       5.036611570061e-09       3.206206193982e-10      -1.482512887183e-12 
    4       1.235062802871e-10       5.391916695299e-15       3.947217950571e-13       0.000000000000e+00       3.512566870464e-09       2.430752903267e-10      -1.002322818171e-12 
    5       1.181714555704e-10       3.754761995073e-15       3.399853365640e-13       0.000000000000e+00       2.623584106631e-09       1.921085910250e-10      -5.866793204964e-13 
    6       1.144866064030e-10       2.171906139523e-15       2.764634787467e-13       0.000000000000e+00       2.048892666745e-09       1.563412152451e-10      -2.694569171125e-13 
    7       1.120815970664e-10       1.171487381714e-15       2.182805038199e-13       0.000000000000e+00       1.651143065374e-09       1.300740482372e-10      -5.658003147674e-14 
    8       1.106605575235e-10       7.220491701603e-16       1.720903283171e-13       0.000000000000e+00       1.362914557722e-09       1.101543275736e-10       6.245716423305e-14 
    9       1.099733581916e-10       5.644486386195e-16       1.398851977006e-13       0.000000000000e+00       1.146934636078e-09       9.467651432561e-11       1.073527242027e-13 
   10       1.098124135915e-10       4.873017661401e-16       1.208637794512e-13       0.000000000000e+00       9.804141849503e-10       8.240341585084e-11       1.017426620344e-13 
   11       1.100893147084e-10       4.139331602572e-16       1.126714630569e-13       0.000000000000e+00       8.260808875027e-10       7.274448317756e-11       6.904013318242e-14 
   12       1.106891556951e-10       3.534659850961e-16       1.122684971365e-13       0.000000000000e+00       7.217000074542e-10       6.437995569374e-11       2.799909251561e-14 
   13       1.115407380455e-10       3.263540911687e-16       1.167611463170e-13       0.000000000000e+00       6.360216096767e-10       5.755444808092e-11      -7.652009551770e-15 
   14       1.125709391564e-10       3.312099445790e-16       1.238813151934e-13       0.000000000000e+00       5.647421051959e-10       5.158982209086e-11      -3.122745321525e-14 
   15       1.137872726309e-10       3.534951831533e-16       1.320657796730e-13       0.000000000000e+00       5.047480865107e-10       4.657684524618e-11      -4.067878583738e-14 
   16       1.151458136853e-10       3.843672848791e-16       1.404105994687e-13       0.000000000000e+00       4.537436737969e-10       4.228326601974e-11      -3.837663349976e-14 
   17       1.166146125378e-10       4.266922012429e-16       1.485713534990e-13       0.000000000000e+00       4.099948821176e-10       3.855077830846e-11      -2.882263275784e-14 
   18       1.181661881495e-10       4.885963482070e-16       1.566784244050e-13       0.000000000000e+00       3.720267323036e-10       3.525183017243e-11      -1.717126001753e-14 
   19       1.198125049185e-10       5.731413277437e-16       1.649764708106e-13       0.000000000000e+00       3.392362249223e-10       3.236120737252e-11      -6.848210272814e-15 
   20       1.215251046133e-10       6.804869866597e-16       1.737148265524e-13       0.000000000000e+00       3.103581887188e-10       2.981712498035e-11      -7.784356538591e-16 
   21       1.233129166006e-10       8.089070351117e-16       1.830017026127e-13       0.000000000000e+00       2.849389303383e-10       2.757528485691e-11       6.362884132836e-16 
   22       1.251647180604e-10       9.557326150057e-16       1.928188017621e-13       0.000000000000e+00       2.623705276380e-10       2.556032420167e-11      -1.749402685758e-15 
   23       1.270748364797e-10       1.121312579225e-15       2.028637002942e-13       0.000000000000e+00       2.423421693538e-10       2.374582793099e-11      -6.415880901036e-15 
   24       1.290214662218e-10       1.306651784735e-15       2.126897139592e-13       0.000000000000e+00       2.243900529982e-10       2.210190752295e-11      -1.137791592826e-14 
   25       1.310203469938e-10       1.511497788821e-15       2.219840693276e-13       0.000000000000e+00       2.083027293811e-10       2.062735546249e-11      -1.527095211522e-14 
   26       1.330799943470e-10       1.735302387860e-15       2.304555037438e-13       0.000000000000e+00       1.937888779896e-10       1.931176962686e-11      -1.700575056579e-14 
   27       1.351836155348e-10       1.979216800171e-15       2.378836313468e-13       0.000000000000e+00       1.806742520601e-10       1.812437824512e-11      -1.660974350343e-14 
   28       1.372994383119e-10       2.245040586776e-15       2.441004255039e-13       0.000000000000e+00       1.687325955865e-10       1.702226218703e-11      -1.459827543900e-14 
   29       1.394374261108e-10       2.534618334217e-15       2.491325896070e-13       0.000000000000e+00       1.579027884989e-10       1.600436200155e-11      -1.167470775040e-14 
   30       1.416109467716e-10       2.849971931090e-15       2.531069314770e-13       0.000000000000e+00       1.480683752818e-10       1.507543887832e-11      -8.785253010935e-15 
   31       1.438229116581e-10       3.193072484757e-15       2.561699264813e-13       0.000000000000e+00       1.390285506839e-10       1.423179111460e-11      -6.903040363813e-15 
   32       1.460751188552e-10       3.564826238800e-15       2.583374366918e-13       0.000000000000e+00       1.307365150039e-10       1.346496049454e-11      -6.164434868329e-15 
   33       1.483596882924e-10       3.965691930656e-15       2.595904768767e-13       0.000000000000e+00       1.231335226470e-10       1.275764385559e-11      -6.407154866685e-15 
   34       1.506625233680e-10       4.396066292216e-15       2.598941956703e-13       0.000000000000e+00       1.161130572376e-10       1.208901767877e-11      -7.373876079527e-15 
   35       1.529890722155e-10       4.856772047080e-15       2.591290019331e-13       0.000000000000e+00       1.096391367441e-10       1.146009179194e-11      -8.669652801599e-15 
   36       1.553459344210e-10       5.348729876919e-15       2.571328670498e-13       0.000000000000e+00       1.036597900696e-10       1.087643866016e-11      -9.776038491825e-15 
   37       1.577347501889e-10       5.872819769857e-15       2.537445121186e-13       0.000000000000e+00       9.809715942101e-11       1.034076728714e-11      -1.019697081426e-14 
   38       1.601571812290e-10       6.429855866810e-15       2.488960447489e-13       0.000000000000e+00       9.293685025773e-11       9.851309920949e-12      -9.949286217827e-15 
   39       1.626103968044e-10       7.020597865382e-15       2.425501775706e-13       0.000000000000e+00       8.816247048219e-11       9.402386273157e-12      -9.233724074923e-15 
   40       1.650849077337e-10       7.645753383538e-15       2.346758797298e-13       0.000000000000e+00       8.372845238113e-11       8.984429266312e-12      -8.308585433267e-15 
   41       1.675693514617e-10       8.305978892121e-15       2.252541487469e-13       0.000000000000e+00       7.957592071497e-11       8.586945631690e-12      -7.441096199280e-15 
   42       1.700682840459e-10       9.001891117648e-15       2.142967218244e-13       0.000000000000e+00       7.569262688394e-11       8.209318922643e-12      -6.733106752064e-15 
   43       1.725890854570e-10       9.734053582016e-15       2.018340606773e-13       0.000000000000e+00       7.206824222081e-11       7.852989648901e-12      -6.245196738947e-15 
   44       1.751367524553e-10       1.050296949154e-14       1.879111830259e-13       0.000000000000e+00       6.867637356920e-11       7.518391161439e-12      -6.044575723976e-15 
   45       1.777140661669e-10       1.130909864587e-14       1.725667145232e-13       0.000000000000e+00       6.548398402976e-11       7.205113988186e-12      -6.178741549105e-15 
   46       1.803228077996e-10       1.215292157956e-14       1.557608634492e-13       0.000000000000e+00       6.248602695851e-11       6.912673443323e-12      -6.586446301738e-15 
   47       1.829624348348e-10       1.303488926428e-14       1.374271498002e-13       0.000000000000e+00       5.967899108861e-11       6.639815572453e-12      -7.160558906246e-15 
   48       1.856294227321e-10       1.395540280124e-14       1.174917030584e-13       0.000000000000e+00       5.705045472281e-11       6.384206144326e-12      -7.771121388424e-15 
   49       1.883170133355e-10       1.491481144100e-14       9.587274082195e-14       0.000000000000e+00       5.457842324699e-11       6.142353726594e-12      -8.264079051198e-15 
   50       1.910181374966e-10       1.591338906949e-14       7.249480812849e-14       0.000000000000e+00       5.223794915266e-11       5.910612806705e-12      -8.504405192295e-15 
   51       1.937357018770e-10       1.695126073580e-14       4.733726158593e-14       0.000000000000e+00       5.002464748023e-11       5.688692617553e-12      -8.522221159256e-15 
   52       1.964746594876e-10       1.802845275822e-14       2.039804449121e-14       0.000000000000e+00       4.793641822854e-11       5.476967774604e-12      -8.404143962471e-15 
   53       1.992389797225e-10       1.914490959240e-14      -8.319754487229e-15       0.000000000000e+00       4.596640953110e-11       5.275455994477e-12      -8.253158169450e-15 
   54       2.020315461407e-10       2.030049083768e-14      -3.880772805836e-14       0.000000000000e+00       4.410269787596e-11       5.083791996345e-12      -8.189435235444e-15 
   55       2.048542854480e-10       2.149503726951e-14      -7.105842429439e-14       0.000000000000e+00       4.233192324053e-11       4.901426322103e-12      -8.319521442939e-15 
   56       2.077088261402e-10       2.272859500385e-14      -1.050863906502e-13       0.000000000000e+00       4.065198457731e-11       4.728339424965e-12      -8.633061199678e-15 
   57       2.105958244372e-10       2.400124177653e-14      -1.409120542674e-13       0.000000000000e+00       3.906193803932e-11       4.564459262058e-12      -9.081852712644e-15 
   58       2.135146562358e-10       2.531302249859e-14      -1.785558090073e-13       0.000000000000e+00       3.755815629828e-11       4.409434959713e-12      -9.608827472733e-15 
   59       2.164633238996e-10       2.666394895208e-14      -2.180380933916e-13       0.000000000000e+00       3.613416285204e-11       4.262619477927e-12      -1.014763719351e-14 
   60       2.194383630474e-10       2.805399948577e-14      -2.593794685418e-13       0.000000000000e+00       3.478046633205e-11       4.123052274842e-12      -1.062224074998e-14 
   61       2.224362824103e-10       2.948302133034e-14      -3.025938731133e-13       0.000000000000e+00       3.348719428920e-11       3.989725126980e-12      -1.096409900551e-14 
   62       2.254584719384e-10       3.095041261008e-14      -3.476664425765e-13       0.000000000000e+00       3.225306022604e-11       3.862488531379e-12      -1.116920387763e-14 
   63       2.285072359806e-10       3.245536809054e-14      -3.945708268831e-13       0.000000000000e+00       3.107812444675e-11       3.741318918846e-12      -1.125317532981e-14 
   64       2.315843137473e-10       3.399696693389e-14      -4.432754383375e-13       0.000000000000e+00       2.996109684259e-11       3.626045265357e-12      -1.123492578837e-14 
   65       2.346908347420e-10       3.557416930484e-14      -4.937433130482e-13       0.000000000000e+00       2.889926002465e-11       3.516340740844e-12      -1.113680576624e-14 
   66       2.378272741946e-10       3.718581297659e-14      -5.459319723783e-13       0.000000000000e+00       2.788839245660e-11       3.411714357989e-12      -1.098474948667e-14 
   67       2.409934084932e-10       3.883060993671e-14      -5.997932843975e-13       0.000000000000e+00       2.692269158751e-11       3.311502621008e-12      -1.080842050697e-14 
   68       2.441888293217e-10       4.050728192426e-14      -6.552815417531e-13       0.000000000000e+00       2.599632239396e-11       3.215046927496e-12      -1.063505839823e-14 
   69       2.474147066674e-10       4.221500651877e-14      -7.123799056576e-13       0.000000000000e+00       2.510859919036e-11       3.122286182973e-12      -1.046924543238e-14 
   70       2.506723046233e-10       4.395305575865e-14      -7.710790958732e-13       0.000000000000e+00       2.425972052642e-11       3.033269814886e-12      -1.030928286101e-14 
   71       2.539624245554e-10       4.572066536399e-14      -8.313697186932e-13       0.000000000000e+00       2.344920201495e-11       2.947979108187e-12      -1.015311191363e-14 
   72       2.572853748238e-10       4.751703489564e-14      -8.932423385315e-13       0.000000000000e+00       2.267584103513e-11       2.866323604833e-12      -9.998298323119e-15 
   73       2.606409405042e-10       4.934132791445e-14      -9.566875495126e-13       0.000000000000e+00       2.193768143588e-11       2.788137503298e-12      -9.842016851116e-15 
   74       2.640283531100e-10       5.119267214035e-14      -1.021696047061e-12       0.000000000000e+00       2.123197823921e-11       2.713176058076e-12      -9.681035813456e-15 
   75       2.674462603130e-10       5.307015961152e-14      -1.088258699493e-12       0.000000000000e+00       2.055516234354e-11       2.641111979191e-12      -9.511701605598e-15 
   76       2.708933384826e-10       5.497277939087e-14      -1.156360967876e-12       0.000000000000e+00       1.990372580832e-11       2.571619538909e-12      -9.331286976468e-15 
   77       2.743703261879e-10       5.689920116642e-14      -1.225964832607e-12       0.000000000000e+00       1.927714210766e-11       2.504652557539e-12      -9.142353904098e-15 
   78       2.778783082270e-10       5.884795229517e-14      -1.297023685813e-12       0.000000000000e+00       1.867541674623e-11       2.440210803831e-12      -8.949161893545e-15 
   79       2.814180888868e-10       6.081748055086e-14      -1.369487647107e-12       0.000000000000e+00       1.809819776639e-11       2.378255012029e-12      -8.756387096648e-15 
   80       2.849901748459e-10       6.280615289989e-14      -1.443303519286e-12       0.000000000000e+00       1.754475932879e-11       2.318705079880e-12      -8.569134802210e-15 
   81       2.885947580775e-10       6.481225427735e-14      -1.518414744029e-12       0.000000000000e+00       1.701398529301e-11       2.261438266655e-12      -8.392951926196e-15 
   82       2.922316987524e-10       6.683398636294e-14      -1.594761357592e-12       0.000000000000e+00       1.650435279810e-11       2.206287391159e-12      -8.233839501916e-15 
   83       2.959005081422e-10       6.886946635700e-14      -1.672279946503e-12       0.000000000000e+00       1.601391584323e-11       2.153039029748e-12      -8.098265170216e-15 
   84       2.996006527098e-10       7.091680513739e-14      -1.750907480373e-12       0.000000000000e+00       1.554077780573e-11       2.101486389631e-12      -7.991463870253e-15 
   85       3.033325617547e-10       7.297435929838e-14      -1.830593637422e-12       0.000000000000e+00       1.508463496494e-11       2.051601947093e-12      -7.911988874405e-15 
   86       3.070967562440e-10       7.504051884455e-14      -1.911290450537e-12       0.000000000000e+00       1.464545994749e-11       2.003390258252e-12      -7.856276130522e-15 
   87       3.108935309508e-10       7.711363163336e-14      -1.992948632382e-12       0.000000000000e+00       1.422302745977e-11       1.956834958330e-12      -7.820259706016e-15 
   88       3.147229427551e-10       7.919200348518e-14      -2.075517596256e-12       0.000000000000e+00       1.381690608597e-11       1.911897878585e-12      -7.799355508318e-15 
   89       3.185847989454e-10       8.127389829349e-14      -2.158945476957e-12       0.000000000000e+00       1.342645008614e-11       1.868518163236e-12      -7.788445005323e-15 
   90       3.224786455191e-10       8.335753813491e-14      -2.243179151629e-12       0.000000000000e+00       1.305079119419e-11       1.826611386387e-12      -7.781858945844e-15 
   91       3.264037554840e-10       8.544110337940e-14      -2.328164260634e-12       0.000000000000e+00       1.268883041599e-11       1.786068668959e-12      -7.773361080064e-15 
   92       3.303591171598e-10       8.752273280028e-14      -2.413845228396e-12       0.000000000000e+00       1.233922982734e-11       1.746755795611e-12      -7.756131879983e-15 
   93       3.343437511196e-10       8.960054531185e-14      -2.500164789890e-12       0.000000000000e+00       1.200072974483e-11       1.708547111917e-12      -7.724283656930e-15 
   94       3.383577409568e-10       9.167270868262e-14      -2.587062443303e-12       0.000000000000e+00       1.167317262016e-11       1.671434965720e-12      -7.677701939324e-15 
   95       3.424013366371e-10       9.373738140820e-14      -2.674475802128e-12       0.000000000000e+00       1.135661869154e-11       1.635435169639e-12      -7.617905527309e-15 
   96       3.464746325794e-10       9.579269240624e-14      -2.762341082698e-12       0.000000000000e+00       1.105103064649e-11       1.600553287225e-12      -7.546584652861e-15 
   97       3.505775604678e-10       9.783674142339e-14      -2.850593118253e-12       0.000000000000e+00       1.075626988623e-11       1.566784227313e-12      -7.465605721478e-15 
   98       3.547098820641e-10       9.986759944231e-14      -2.939165373014e-12       0.000000000000e+00       1.047209279009e-11       1.534111838373e-12      -7.377016053864e-15 
   99       3.588711820201e-10       1.018833090886e-13      -3.027989956251e-12       0.000000000000e+00       1.019814697984e-11       1.502508502855e-12      -7.283048627620e-15 
  100       3.630608606900e-10       1.038818850380e-13      -3.116997636363e-12       0.000000000000e+00       9.933967584090e-12       1.471934731540e-12      -7.186126818928e-15 
  101       3.672781269425e-10       1.058613144230e-13      -3.206117854941e-12       0.000000000000e+00       9.678973502691e-12       1.442338757892e-12      -7.088869144239e-15 
  102       3.715219909734e-10       1.078195572401e-13      -3.295278740845e-12       0.000000000000e+00       9.432463671081e-12       1.413656132406e-12      -6.994094001960e-15 
  103       3.757912571178e-10       1.097545467569e-13      -3.384407124273e-12       0.000000000000e+00       9.193613324682e-12       1.385809316954e-12      -6.904824414142e-15 
  104       3.800847766186e-10       1.116642432341e-13      -3.473429579721e-12       0.000000000000e+00       8.961660812314e-12       1.358725534860e-12      -6.823634881014e-15 
  105       3.844022603013e-10       1.135468024814e-13      -3.562275684996e-12       0.000000000000e+00       8.736504822925e-12       1.332393940970e-12      -6.750581247788e-15 
  106       3.887435627907e-10       1.154004309360e-13      -3.650875230729e-12       0.000000000000e+00       8.518181246795e-12       1.306815454127e-12      -6.684998731068e-15 
  107       3.931084280796e-10       1.172233353612e-13      -3.739157255879e-12       0.000000000000e+00       8.306678208937e-12       1.281984988524e-12      -6.626132376283e-15 
